# radius mass k_2
2.708823514369109731e+01 1.502321658635386026e-01 -7.057465972479508992e-04
2.597206841473412098e+01 1.534154041396970647e-01 -7.625036162823982833e-05
2.495360381891991253e+01 1.567431714618640060e-01 5.876967704803738026e-04
2.402206600656293745e+01 1.602186658760354487e-01 1.293767384116418931e-03
2.316814782922944360e+01 1.638452795557548691e-01 2.045478408736233541e-03
2.238374957070189453e+01 1.676266747919410993e-01 2.850638220019276626e-03
2.166186694892211761e+01 1.715664341555997729e-01 3.714380616871380564e-03
2.099635104072048009e+01 1.756683461593298856e-01 4.641658038812086252e-03
2.038181151582041650e+01 1.799362629565231519e-01 5.636493306992292063e-03
1.981351015367884827e+01 1.843740234392637345e-01 6.701545207477279005e-03
1.928725392217696566e+01 1.889855217858178449e-01 7.827139827067687225e-03
1.879933103004737660e+01 1.937745982450616300e-01 9.015991917909180198e-03
1.834641527480011192e+01 1.987453443505173833e-01 1.027049258025688853e-02
1.792553851938255249e+01 2.039019038703908937e-01 1.159501860619831931e-02
1.753402419513308530e+01 2.092487970066529146e-01 1.298979124455182897e-02
1.716948208306008539e+01 2.147905035519244166e-01 1.446164980187133499e-02
1.682975656939831666e+01 2.205316890407161556e-01 1.600640327097872101e-02
1.651291124532629695e+01 2.264770179179437237e-01 1.762940591718449926e-02
1.621718437259530532e+01 2.326314989701703251e-01 1.932766247317686467e-02
1.594099593214235355e+01 2.389999373585263709e-01 2.109914789949759312e-02
1.568291698815135327e+01 2.455870066125883655e-01 2.294563853425114763e-02
1.544164966014003149e+01 2.523972660282138292e-01 2.486261110319945913e-02
1.521599331069723959e+01 2.594358477646723227e-01 2.685047913745882212e-02
1.500486101153398089e+01 2.667077233860947194e-01 2.890227078885109976e-02
1.480726127914322632e+01 2.742176754385153847e-01 3.101643289390457886e-02
1.462228206695488453e+01 2.819705894941316737e-01 3.319000457322805742e-02
1.444907140761748821e+01 2.899722104646380028e-01 3.541781914270840381e-02
1.428685515137107309e+01 2.982280844504358042e-01 3.769562452797518837e-02
1.413493412827196671e+01 3.067429499976579432e-01 4.001749182189103665e-02
1.399266462899471364e+01 3.155212596122194957e-01 4.237806293953563785e-02
1.385943375472282568e+01 3.245685439629751312e-01 4.477239742864041333e-02
1.373467567581694482e+01 3.338901131822122337e-01 4.719330823773030398e-02
1.361789420001089113e+01 3.434884608589812705e-01 4.963467985196834409e-02
1.350862231252818901e+01 3.533657083306336877e-01 5.208988522652772957e-02
1.340640768748785483e+01 3.635253123069057124e-01 5.455009433021792975e-02
1.331081926411420646e+01 3.739719585512677469e-01 5.700948438500903076e-02
1.322145634386756186e+01 3.847106226473664403e-01 5.946002327327059439e-02
1.313794564985558289e+01 3.957462895179609808e-01 6.189697369230946766e-02
1.305993992039438290e+01 4.070835841544944156e-01 6.431068016977470325e-02
1.298711909291844968e+01 4.187263107552061658e-01 6.669553323395187305e-02
1.291917579944121286e+01 4.306799800223036212e-01 6.904337927419607057e-02
1.285581807385064579e+01 4.429523796713790706e-01 7.134666903286744633e-02
1.279678284378065278e+01 4.555510682543037482e-01 7.360013651085638153e-02
1.274183299563312843e+01 4.684821339953350594e-01 7.580500087662944697e-02
1.269074831679917637e+01 4.817503486946411173e-01 7.795896786053779781e-02
1.264332452663384920e+01 4.953577036221527563e-01 8.004954032438872658e-02
1.259936563937796095e+01 5.093056745834514398e-01 8.207675965997086875e-02
1.255867937399987611e+01 5.235970013242429166e-01 8.403385023075532478e-02
1.252108304312331022e+01 5.382348097911333618e-01 8.591644882714266629e-02
1.248640323628839965e+01 5.532227432132977851e-01 8.772018055719815743e-02
1.245447497367128342e+01 5.685657429773095517e-01 8.943930728768362259e-02
1.242514562226171648e+01 5.842679725340410579e-01 9.107343480954641080e-02
1.239827266210778767e+01 6.003322042464013242e-01 9.261606234103836321e-02
1.237371984551838544e+01 6.167606097180655667e-01 9.406564629995345372e-02
1.235135686437465274e+01 6.335530571725170867e-01 9.542021149316536055e-02
1.233105761300833159e+01 6.507088035371079160e-01 9.667459032505183736e-02
1.231269889063619694e+01 6.682275548923919395e-01 9.783011843834786558e-02
1.229616251493667001e+01 6.861089196732312878e-01 9.887973150678561196e-02
1.228133542540202150e+01 7.043543853990352765e-01 9.982762904339180510e-02
1.226811180555143999e+01 7.229664963503059649e-01 1.006706679316041464e-01
1.225639390734346001e+01 7.419444431366147841e-01 1.014088027256099256e-01
1.224608483047083496e+01 7.612841566397094972e-01 1.020422789007303099e-01
1.223708638744611221e+01 7.809779731925260426e-01 1.025711786350589488e-01
1.222930037270565151e+01 8.010189661760599433e-01 1.029961208305843895e-01
1.222263306751913170e+01 8.214037659550842418e-01 1.033170574899621857e-01
1.221699743832221330e+01 8.421306530823133851e-01 1.035380733181031354e-01
1.221231278268440690e+01 8.631990520868670913e-01 1.036604427176965326e-01
1.220850352624541735e+01 8.846065442616236618e-01 1.036863992264620976e-01
1.220549581046044452e+01 9.063454508321084901e-01 1.036120370450950290e-01
1.220321231275161900e+01 9.284038331953936574e-01 1.034388447220267182e-01
1.220157351438355420e+01 9.507691464436114348e-01 1.031675827342001944e-01
1.220050554394892650e+01 9.734350646321204836e-01 1.028021370155814129e-01
1.219994438200213516e+01 9.963977567827637660e-01 1.023424647905949031e-01
1.219982717511352277e+01 1.019647787510705950e+00 1.017940952391391540e-01
1.220008645298690020e+01 1.043169353867274607e+00 1.011585833504772131e-01
1.220065370988762332e+01 1.066947875167055138e+00 1.004396049943985375e-01
1.220146914022105555e+01 1.090976114730534352e+00 9.964047318724955637e-02
1.220247953577437627e+01 1.115244974166835101e+00 9.876377738630652547e-02
1.220362806805849054e+01 1.139736985383403400e+00 9.781367864696610681e-02
1.220485095951776877e+01 1.164430403707497508e+00 9.679393230600878695e-02
1.220609095064653715e+01 1.189311732696525681e+00 9.570748916064882039e-02
1.220730124578682840e+01 1.214372593151733293e+00 9.455764452086591609e-02
1.220843626846044572e+01 1.239598373955637101e+00 9.334853988714365836e-02
1.220944470477389032e+01 1.264967188309794821e+00 9.208226546248590716e-02
1.221027624271749978e+01 1.290460314238428330e+00 9.076297691742013507e-02
1.221088857291183771e+01 1.316064306519102223e+00 8.939215266092430390e-02
1.221124169168038165e+01 1.341762488889976179e+00 8.797153134103201377e-02
1.221129243661910913e+01 1.367532501598109018e+00 8.650289686776632680e-02
1.221099769189702222e+01 1.393352256330992134e+00 8.498574764163514816e-02
1.221031835942880761e+01 1.419202979200196335e+00 8.342472434525377567e-02
1.220921906971630477e+01 1.445066780142136409e+00 8.184103442968741760e-02
1.220766587825799121e+01 1.470923857833526194e+00 8.024322088594917912e-02
1.220562489059123301e+01 1.496751336981684943e+00 7.864008161830561561e-02
1.220306155710232332e+01 1.522525167211639108e+00 7.703089125870694887e-02
1.219994404452909009e+01 1.548224565451952861e+00 7.540914969386885991e-02
1.219624502739236860e+01 1.573830479160114537e+00 7.377852126202885663e-02
1.219193869136318575e+01 1.599323447371880480e+00 7.214247359931175163e-02
1.218700162395651176e+01 1.624684510004932969e+00 7.050161495591400485e-02
1.218141380163660337e+01 1.649895483899410209e+00 6.886165426163914915e-02
1.217515514819764277e+01 1.674931994638881871e+00 6.722413726385959021e-02
1.216820103906096051e+01 1.699766365265286572e+00 6.559253053533965760e-02
1.216053020828972286e+01 1.724378808332153179e+00 6.396844973815449253e-02
1.215212785387386951e+01 1.748752184696637180e+00 6.235463053732324956e-02
1.214297880275703356e+01 1.772864597694965072e+00 6.075326288383124662e-02
1.213306817624613743e+01 1.796696180014404121e+00 5.916576864287009796e-02
1.212238540921354790e+01 1.820230541106552247e+00 5.759402473561675562e-02
1.211092174685729006e+01 1.843448637344407892e+00 5.603966589335945131e-02
1.209866787066136773e+01 1.866329610844836173e+00 5.450485670332632510e-02
1.208561526944654041e+01 1.888856448735452664e+00 5.299233716027814539e-02
1.207175994672633657e+01 1.911018229917117894e+00 5.150309579387897518e-02
1.205710247256446799e+01 1.932799468296485745e+00 5.003792167199832414e-02
1.204164005940571869e+01 1.954177123996199805e+00 4.859921785249571302e-02
1.202536817838752548e+01 1.975133442751377366e+00 4.718771729156294448e-02
1.200828599402265695e+01 1.995654708573290970e+00 4.580328326251604382e-02
1.199039436630509847e+01 2.015725835978991576e+00 4.444963365694275942e-02
1.197169461246939015e+01 2.035332794708468729e+00 4.312475496273898007e-02
1.195218934600509897e+01 2.054465760675290298e+00 4.182970446087946187e-02
1.193188510004324421e+01 2.073116404939982615e+00 4.056553973532375790e-02
1.191078986130253448e+01 2.091274206038104211e+00 3.933249835529137317e-02
1.188891290712809123e+01 2.108928029068679599e+00 3.813080691960223784e-02
1.186626343857306587e+01 2.126063120721614741e+00 3.696118683341149264e-02
1.184284588046260289e+01 2.142670676293902510e+00 3.582319654583627361e-02
1.181866949303023695e+01 2.158750759712566580e+00 3.471594446442846649e-02
1.179374981779649190e+01 2.174297302332547144e+00 3.363961168944085145e-02
1.176810084992862393e+01 2.189302322790525501e+00 3.259375288992946013e-02
1.174173602318127685e+01 2.203759435934400823e+00 3.157891417928199163e-02
1.171466707342569080e+01 2.217665527425513261e+00 3.059397488345408020e-02
1.168691113490376310e+01 2.231018657938491856e+00 2.963937804034622037e-02
1.165847886559283886e+01 2.243817974842496010e+00 2.871368097847933412e-02
1.162938258775215061e+01 2.256062717144105889e+00 2.781695011161959205e-02
1.159964592101495029e+01 2.267749420214255185e+00 2.694882561679277228e-02
1.156929108278736962e+01 2.278876150032429493e+00 2.610878265819418370e-02
1.153833652033842228e+01 2.289442932756336813e+00 2.529616825324038087e-02
1.150679773041999709e+01 2.299450867832170786e+00 2.451035586739811964e-02
1.147469067577051227e+01 2.308903104415761298e+00 2.375079126814987757e-02
1.144203106813341897e+01 2.317808011246403233e+00 2.301764421553181839e-02
1.140884736500505348e+01 2.326172063194413830e+00 2.230837148118805513e-02
1.137517129473113009e+01 2.333992648523972147e+00 2.162482227324433876e-02
1.134102235391773483e+01 2.341264101467046554e+00 2.096584864270273005e-02
1.130640738203030971e+01 2.347992536224004834e+00 2.033082599066441537e-02
1.127133857591877941e+01 2.354192990271416708e+00 1.971848689590489576e-02
1.123583784521489370e+01 2.359878210622303740e+00 1.912820858615783826e-02
1.119993954653912738e+01 2.365053849275848830e+00 1.855947643742295039e-02
1.116367470231156034e+01 2.369720907903424489e+00 1.801216271672869892e-02
1.112705857659183373e+01 2.373883122159223369e+00 1.748543727473540407e-02
1.109010009910683081e+01 2.377553818016514775e+00 1.697855754844340703e-02
1.105282449140709211e+01 2.380746380160484676e+00 1.649091600099603788e-02
1.101526442364161973e+01 2.383466311153754180e+00 1.602202908376079010e-02
1.097744354348457385e+01 2.385719034646726744e+00 1.557152314504417316e-02
1.093937825611560477e+01 2.387514425574242427e+00 1.513857994605986336e-02
1.090108679632360378e+01 2.388863427208451462e+00 1.472241182843090149e-02
1.086258831134406933e+01 2.389777001049642635e+00 1.432257590790401297e-02
1.082390392884755137e+01 2.390267237828427316e+00 1.393844058407431308e-02
1.078506392867580566e+01 2.390344152034566072e+00 1.356942682453094254e-02
1.074609579895246014e+01 2.390015047616839361e+00 1.321527219694111459e-02
1.070701514759672968e+01 2.389289429536576748e+00 1.287541206645000970e-02
1.066783444064963682e+01 2.388179496307366811e+00 1.254920657766392042e-02
1.062857321421591195e+01 2.386697817033347935e+00 1.223610532186070014e-02
1.058925515871572287e+01 2.384855913134549699e+00 1.193571611870824882e-02
1.054990118065306426e+01 2.382664886864362952e+00 1.164754066895887924e-02
1.051053902260524175e+01 2.380136094864670149e+00 1.137117123975914593e-02
1.047119931135986981e+01 2.377277867499104413e+00 1.110630120482064380e-02
1.043188527007429833e+01 2.374099484242707447e+00 1.085230272270224991e-02
1.039260563166001816e+01 2.370615347771891646e+00 1.060876914625028672e-02
1.035339426818543274e+01 2.366837150317900207e+00 1.037535178000534297e-02
1.031427496974639979e+01 2.362774479521128956e+00 1.015202046294554593e-02
1.027526447922691055e+01 2.358437715896043230e+00 9.938385072982442239e-03
1.023637658718996235e+01 2.353837162706650776e+00 9.734073904278229758e-03
1.019762148871299345e+01 2.348984158517782195e+00 9.538672943186832232e-03
1.015902044126506709e+01 2.343890845454558836e+00 9.351869090172906102e-03
1.012060464159736561e+01 2.338568069711941533e+00 9.173229015601686367e-03
1.008238638959736022e+01 2.333024591551658311e+00 9.002727231363147689e-03
1.004438249880187151e+01 2.327271725802409374e+00 8.839855699602919628e-03
1.000661378436111981e+01 2.321318646765671456e+00 8.684420479013759200e-03
9.969080064965076815e+00 2.315174784859611368e+00 8.536090268175745149e-03
9.931805391882280176e+00 2.308852170549445582e+00 8.394603449708640600e-03
9.894813913341401701e+00 2.302360606017159306e+00 8.259633906227034986e-03
9.858111039338730563e+00 2.295708712259951323e+00 8.131268679005366345e-03
9.821716748699214961e+00 2.288907274787554069e+00 8.008921614183133614e-03
9.785639587082281210e+00 2.281964521702986914e+00 7.892670632201998285e-03
9.749897398031846407e+00 2.274891479063333666e+00 7.782125998404046049e-03
9.714514995561495780e+00 2.267697690172724378e+00 7.677133327617090622e-03
9.679499600642493817e+00 2.260391057696987893e+00 7.577671021181748429e-03
9.644860102584221551e+00 2.252979853247213171e+00 7.483238753736469635e-03
9.610611754710518539e+00 2.245473741885232855e+00 7.394006342325678063e-03
9.576770970494751012e+00 2.237881395452527844e+00 7.309665748843209576e-03
9.543345194215408611e+00 2.230210630908790126e+00 7.229927858789645008e-03
9.510349405727909655e+00 2.222470323397664593e+00 7.154802318573587686e-03
9.477803445711579400e+00 2.214669758787080944e+00 7.084155828961702199e-03
9.445716817203360094e+00 2.206815925150150015e+00 7.017847059622120409e-03
9.414097539103069678e+00 2.198916016027570475e+00 6.955602299817619481e-03
9.382958461009554441e+00 2.190978251074727989e+00 6.897511337958244122e-03
9.352314408979371052e+00 2.183010389286997643e+00 6.843303198540636421e-03
9.322166582335539076e+00 2.175018154949081239e+00 6.792774879571490849e-03
9.292538820659373755e+00 2.167011602580998009e+00 6.746154340829348985e-03
9.263437949983401865e+00 2.158996419104900699e+00 6.703100027093345827e-03
9.234876032000153501e+00 2.150980015905734177e+00 6.663469288869384999e-03
9.206863974925207472e+00 2.142969282736788994e+00 6.627215740235481954e-03
9.179413485724351673e+00 2.134970933430393458e+00 6.594440355113797766e-03
9.152538170493732750e+00 2.126992553224644311e+00 6.564785351214160250e-03
