# radius mass k_2
2.731542585917345534e+01 1.363606407793883368e-01 1.531527573743813936e-03
2.625640380928298612e+01 1.391445298054017621e-01 1.806673460083019385e-03
2.529295940971393719e+01 1.420189950100912146e-01 2.119379642853680672e-03
2.441337618210646454e+01 1.449858695807568487e-01 2.472575846224297092e-03
2.360764699736139960e+01 1.480476222960600274e-01 2.869159266655671534e-03
2.286717440589472616e+01 1.512074283594801449e-01 3.311876641941027301e-03
2.218452947689766219e+01 1.544693086954123107e-01 3.803610031048377214e-03
2.155329764311579055e+01 1.578380285140484063e-01 4.347765968011013324e-03
2.096837683074493697e+01 1.613162796936154775e-01 4.946565668917282665e-03
2.042559320844718584e+01 1.649049260204974166e-01 5.602191676677236234e-03
1.992123825277279181e+01 1.686047522559577239e-01 6.316886549771976930e-03
1.945199579057934258e+01 1.724165298506147581e-01 7.091667053794890700e-03
1.901489805978079772e+01 1.763410156949166141e-01 7.928310671370068091e-03
1.860727824448818879e+01 1.803789513277469225e-01 8.827872680236792738e-03
1.822673647035261624e+01 1.845310850943197856e-01 9.790651416432155293e-03
1.787110586340519447e+01 1.887981811581755376e-01 1.081744385048331175e-02
1.753842703711274353e+01 1.931810328279424394e-01 1.190798880050095675e-02
1.722692294133879187e+01 1.976804773864682396e-01 1.306195129148217046e-02
1.693497875878851033e+01 2.022974318195032706e-01 1.427905492230792037e-02
1.666112299562224308e+01 2.070329236946073237e-01 1.555838961360664525e-02
1.640401285767716644e+01 2.118881190213280363e-01 1.689893647531531817e-02
1.616241924693868626e+01 2.168643787779095666e-01 1.829927532395450238e-02
1.593521526730197024e+01 2.219632994045717678e-01 1.975850406663117592e-02
1.572136518973062635e+01 2.271867833756505695e-01 2.127417018131121801e-02
1.551991470540042961e+01 2.325371172048010249e-01 2.284507252949999345e-02
1.532998325028609621e+01 2.380170372089304431e-01 2.446926054923413002e-02
1.515075511347766124e+01 2.436298770900326705e-01 2.614511355019272579e-02
1.498147547106684918e+01 2.493796023167765274e-01 2.787043442605617247e-02
1.482144080683480070e+01 2.552710386361248251e-01 2.964396505278772687e-02
1.466999935207407368e+01 2.613099239680319319e-01 3.146363723862882072e-02
1.452653577489057213e+01 2.675032549220984768e-01 3.332812778729042635e-02
1.439049147920185767e+01 2.738588449014610626e-01 3.523557607981173817e-02
1.426143570874369182e+01 2.803809179908734461e-01 3.718379762932859378e-02
1.413902914039988978e+01 2.870704930163076041e-01 3.916906867849237472e-02
1.402294823468163010e+01 2.939284479043524079e-01 4.118666628241710037e-02
1.391288357607184345e+01 3.009555932980870208e-01 4.323294796857326400e-02
1.380853914217856548e+01 3.081527036697499500e-01 4.530354868845382771e-02
1.370963196803652551e+01 3.155205213691456567e-01 4.739404112706337852e-02
1.361589151126752384e+01 3.230597961246705618e-01 4.949990918167400389e-02
1.352705913048612985e+01 3.307713170812872083e-01 5.161669478685882578e-02
1.344288786711006267e+01 3.386559070744902256e-01 5.373926590111854223e-02
1.336314106215040987e+01 3.467145745123650924e-01 5.586649089976365723e-02
1.328759325786975865e+01 3.549483983530449804e-01 5.799049570943380638e-02
1.321602791947567646e+01 3.633587635196846022e-01 6.010841985855085168e-02
1.314823865259042712e+01 3.719473068249476988e-01 6.221677138557310527e-02
1.308402760260003639e+01 3.807160585646336415e-01 6.430959537869790354e-02
1.302320512640553218e+01 3.896675792892411727e-01 6.638751815550750224e-02
1.296558996517691753e+01 3.988049448530127106e-01 6.844293688602363923e-02
1.291100823243254503e+01 4.081320081438267744e-01 7.047496290926719142e-02
1.285929315874756007e+01 4.176534877255109746e-01 7.247900565995285538e-02
1.281028570135146971e+01 4.273749673549612216e-01 7.445341391644953732e-02
1.276385105453356772e+01 4.372992667852909077e-01 7.639357906810645416e-02
1.271987598944346765e+01 4.474257285645211746e-01 7.829823025858791141e-02
1.267825058675399674e+01 4.577534641215779687e-01 8.015981368107528982e-02
1.263886753288544362e+01 4.682815627974993289e-01 8.197758525380063888e-02
1.260162214282735427e+01 4.790091278941246977e-01 8.374722886702250235e-02
1.256641249760592416e+01 4.899353357110400875e-01 8.546585486427067668e-02
1.253313941509217244e+01 5.010594928820565341e-01 8.713081389312164748e-02
1.250170646771979399e+01 5.123811166200663569e-01 8.873968263542997281e-02
1.247201993463995962e+01 5.239000225207027794e-01 9.028933171089077725e-02
1.244398893091343972e+01 5.356164162491701131e-01 9.177763074148007072e-02
1.241752506559078562e+01 5.475310275050411235e-01 9.320353475267091625e-02
1.239254263628758501e+01 5.596452220474693595e-01 9.456470392998410357e-02
1.236895855985728332e+01 5.719611671202886605e-01 9.586004941076989305e-02
1.234669214866115006e+01 5.844819921773284355e-01 9.708818806837163362e-02
1.232566509900469320e+01 5.972119881846169598e-01 9.824873597506747491e-02
1.230580304942010805e+01 6.101557902062504368e-01 9.933988950509410609e-02
1.228704336135586139e+01 6.233123430694935685e-01 1.003605549252760964e-01
1.226932831241374622e+01 6.366780023628019203e-01 1.013096440584221741e-01
1.225260089921346029e+01 6.502490655230054317e-01 1.021857396150968877e-01
1.223680497373029397e+01 6.640218545732483602e-01 1.029882154175477127e-01
1.222188538899342269e+01 6.779927847847514455e-01 1.037163424700262015e-01
1.220778808616175937e+01 6.921584238344903328e-01 1.043703635709572336e-01
1.219445967693470223e+01 7.065157145320011267e-01 1.049493855560227618e-01
1.218184858446366192e+01 7.210618461687482439e-01 1.054538236891633535e-01
1.216990388389875122e+01 7.357946199559441958e-01 1.058843578237799177e-01
1.215857591021403650e+01 7.507124712401466171e-01 1.062405684947796414e-01
1.214781607418307274e+01 7.658146521829181097e-01 1.065235738186925546e-01
1.213757665525515428e+01 7.811014523322965530e-01 1.067355350519579027e-01
1.212781191985891738e+01 7.965737516686152153e-01 1.068718299063385890e-01
1.211847920936183520e+01 8.122281860623261629e-01 1.069385745619083894e-01
1.210953961389173017e+01 8.280578723723664991e-01 1.069351351457808602e-01
1.210095457649023487e+01 8.440559704121904927e-01 1.068619107406769686e-01
1.209268634661573749e+01 8.602158321361734750e-01 1.067205016316346983e-01
1.208469790887700412e+01 8.765310952833470504e-01 1.065129012489183652e-01
1.207695303738255177e+01 8.929958054503643883e-01 1.062390969628652232e-01
1.206941629708790487e+01 9.096045551987256284e-01 1.059024305493563162e-01
1.206205289926994340e+01 9.263526209157381119e-01 1.055027197917593057e-01
1.205482886704832701e+01 9.432361437068372823e-01 1.050426961128744646e-01
1.204771064613184528e+01 9.602522946870334364e-01 1.045236406700717352e-01
1.204066521378292087e+01 9.773994344964395120e-01 1.039474974593034839e-01
1.203366137869741159e+01 9.946735334220376812e-01 1.033155824369488968e-01
1.202667087802559998e+01 1.012065188419502437e+00 1.026304132729175533e-01
1.201966632296821302e+01 1.029564682635656370e+00 1.018933814153237249e-01
1.201262102705300627e+01 1.047162642145688327e+00 1.011068242401879924e-01
1.200550894192651796e+01 1.064850156482208821e+00 1.002731354071391273e-01
1.199830458176875148e+01 1.082618903828246770e+00 9.939488817373004492e-02
1.199098316236943340e+01 1.100461320413451682e+00 9.847222276494176085e-02
1.198352011001305861e+01 1.118370739550484716e+00 9.750957784965548492e-02
1.197589122706393105e+01 1.136341585740339832e+00 9.650768112142901756e-02
1.196807252358313356e+01 1.154369467607747390e+00 9.547017258126720696e-02
1.196004147348902613e+01 1.172447445259262366e+00 9.439521195532329934e-02
1.195177843184336375e+01 1.190563941330921027e+00 9.328871721619705348e-02
1.194326452228311375e+01 1.208707485344867383e+00 9.215161708082141023e-02
1.193448143933439098e+01 1.226867183454502852e+00 9.098665659387769611e-02
1.192541138701097303e+01 1.245032869843223367e+00 8.979580428848971119e-02
1.191603687665319811e+01 1.263195238068021586e+00 8.858157325753751588e-02
1.190634060534667427e+01 1.281346017844409602e+00 8.734536605912393559e-02
1.189630519668124187e+01 1.299478122323385998e+00 8.608934667540597829e-02
1.188591313328559096e+01 1.317585593838117131e+00 8.481526244845492835e-02
1.187514914053897819e+01 1.335659120831292457e+00 8.352500503539186938e-02
1.186400091406591173e+01 1.353686100678662241e+00 8.222077124457147224e-02
1.185245646662961327e+01 1.371654594759956103e+00 8.090478202104912919e-02
1.184050445921150896e+01 1.389553498624166439e+00 7.957914976004512586e-02
1.182813372768011106e+01 1.407372799637722993e+00 7.824518422213076752e-02
1.181533314869854934e+01 1.425103660760824065e+00 7.690468101185339578e-02
1.180209132158530672e+01 1.442738571850987750e+00 7.555957514460168167e-02
1.178839655081063675e+01 1.460271221167797950e+00 7.421117057611098522e-02
1.177424017393736122e+01 1.477692106704179276e+00 7.286093881873237366e-02
1.175961645810563816e+01 1.494989117039627669e+00 7.151054021099775837e-02
1.174452009616141979e+01 1.512150907992408921e+00 7.016192559109737936e-02
1.172894571587341339e+01 1.529167097292833288e+00 6.881635720109814669e-02
1.171288768388635049e+01 1.546028362750128782e+00 6.747547137545037432e-02
1.169633964198529874e+01 1.562726632559344297e+00 6.614032552219092920e-02
1.167929430972121629e+01 1.579255075070348457e+00 6.481191880148839957e-02
1.166174637447943851e+01 1.595605133951208732e+00 6.349136662859081182e-02
1.164369447209709740e+01 1.611765275090631722e+00 6.218034947836706405e-02
1.162513752671240397e+01 1.627724824725796271e+00 6.087933502883439291e-02
1.160607429456075046e+01 1.643474402469693008e+00 5.959027627113318987e-02
1.158650281042372399e+01 1.659006039943319966e+00 5.831337979664214660e-02
1.156642043251629026e+01 1.674313199851052536e+00 5.704984992436359925e-02
1.154582388174280716e+01 1.689390462513614244e+00 5.580017099627459370e-02
1.152471437427413825e+01 1.704229603701706397e+00 5.456523336314442196e-02
1.150309593341790126e+01 1.718821509177179019e+00 5.334539615818557901e-02
1.148097183893959006e+01 1.733158302866841582e+00 5.214207625750122421e-02
1.145834472444654217e+01 1.747233256906947307e+00 5.095558148128571940e-02
1.143521581693437916e+01 1.761040967206752628e+00 4.978646282292267106e-02
1.141158524820389886e+01 1.774576984007501190e+00 4.863497469124236638e-02
1.138745724499261591e+01 1.787834743308903684e+00 4.750140156034297900e-02
1.136283918193095666e+01 1.800806718282258467e+00 4.638661834320749466e-02
1.133773743631148889e+01 1.813486588338033112e+00 4.529071691466531047e-02
1.131215711589064199e+01 1.825869351925642370e+00 4.421430502994305733e-02
1.128610160207271207e+01 1.837951339410917040e+00 4.315754743485673839e-02
1.125957410302950024e+01 1.849729256904012908e+00 4.212025636565740194e-02
1.123258365494998756e+01 1.861197665929342326e+00 4.110296794669456022e-02
1.120513998024187075e+01 1.872351601375995767e+00 4.010577960115134510e-02
1.117725115558067550e+01 1.883187248005242065e+00 3.912841323378062758e-02
1.114892340760592404e+01 1.893702024463647549e+00 3.817178877987553037e-02
1.112016138011882660e+01 1.903894190803746556e+00 3.723507063466088840e-02
1.109097493356752828e+01 1.913760482782133732e+00 3.631840138365576703e-02
1.106137580742524129e+01 1.923297531080398581e+00 3.542207522433021144e-02
1.103137411815750646e+01 1.932503133772886184e+00 3.454626761069893442e-02
1.100097753082873098e+01 1.941376250626457578e+00 3.369014766633521285e-02
1.097019230142914203e+01 1.949916588627110370e+00 3.285400316902345463e-02
1.093903037137546974e+01 1.958122579430714882e+00 3.203758995771943674e-02
1.090750489498628717e+01 1.965992837988961295e+00 3.124085254542334142e-02
1.087562675035545467e+01 1.973526995932319394e+00 3.046365306897359099e-02
1.084340432341232408e+01 1.980725683405563764e+00 2.970566695516109121e-02
1.081084623024366564e+01 1.987589427953530885e+00 2.896673312426216104e-02
1.077796715040693343e+01 1.994117995737564986e+00 2.824647140953215688e-02
1.074478018981329441e+01 2.000311871447575829e+00 2.754481261548806167e-02
1.071129548707139634e+01 2.006172429320953743e+00 2.686158076615132242e-02
1.067752124849170592e+01 2.011701612778254766e+00 2.619635419592272751e-02
1.064347164244174770e+01 2.016900661997302002e+00 2.554864237219874740e-02
1.060916099553777414e+01 2.021771093632465099e+00 2.491885580407563264e-02
1.057460081171445054e+01 2.026315175093041709e+00 2.430592947490996941e-02
1.053979992119753994e+01 2.030535696377068877e+00 2.371006257969457409e-02
1.050477216393177216e+01 2.034434957952880652e+00 2.313057919537289328e-02
1.046953254742368422e+01 2.038015467187495489e+00 2.256779379093043145e-02
1.043409268662291467e+01 2.041280375064097985e+00 2.202014764742682429e-02
1.039846172837606098e+01 2.044233138279907269e+00 2.148888820663406515e-02
1.036265431417353255e+01 2.046877019505392692e+00 2.097259759965491507e-02
1.032668493163662760e+01 2.049215517209826753e+00 2.047147138121701432e-02
1.029056437488081954e+01 2.051252595172528004e+00 1.998479802009503481e-02
1.025430294273854059e+01 2.052992357132955803e+00 1.951258043755351584e-02
1.021791631820806501e+01 2.054438807811343359e+00 1.905438855598097503e-02
1.018141790451577933e+01 2.055596221083215713e+00 1.860997131774166577e-02
1.014481736513940824e+01 2.056469062667673597e+00 1.817874128240123954e-02
1.010812818106592204e+01 2.057061833133455586e+00 1.776072421775318558e-02
1.007136514268588101e+01 2.057379107563460874e+00 1.735534152093844151e-02
1.003453903890478216e+01 2.057425690855504197e+00 1.696250982342561997e-02
9.997660636154977354e+00 2.057206465218802904e+00 1.658191220555158690e-02
9.960744889790674961e+00 2.056726458024483506e+00 1.621293463645123029e-02
9.923803381752952291e+00 2.055990819938576575e+00 1.585576969193782174e-02
9.886845739573988823e+00 2.055004715469971543e+00 1.550958268381199580e-02
9.849886952144451868e+00 2.053773492575402759e+00 1.517450629397696857e-02
9.812939396833483485e+00 2.052302565193773631e+00 1.484997549072472091e-02
9.776012857538775691e+00 2.050597215249915450e+00 1.453599061611572131e-02
9.739120667457532576e+00 2.048662928253587090e+00 1.423190495773013833e-02
9.702273234036907112e+00 2.046505142632346175e+00 1.393787599971101077e-02
9.665479793388561447e+00 2.044129216755969036e+00 1.365325086249825903e-02
9.628758422237122971e+00 2.041541167198082540e+00 1.337803568012108438e-02
9.592126305011452914e+00 2.038747076467695152e+00 1.311203393914754829e-02
9.555590744315797025e+00 2.035752380945631934e+00 1.285487395525103382e-02
9.519143311600460677e+00 2.032560988752396991e+00 1.260602693502418589e-02
9.482768557557875511e+00 2.029175942054036064e+00 1.236533906390295881e-02
9.446516694539280223e+00 2.025606398026328137e+00 1.213300432709366744e-02
9.410508437868822185e+00 2.021869715916217558e+00 1.190879503040637860e-02
9.374802272135084991e+00 2.017978046325349162e+00 1.169343299573085034e-02
9.339074969500634538e+00 2.013900063835087462e+00 1.148443138760734360e-02
